# Frequency [Hz]	1 sigma PI curve
1.025000000000000000e+01 8.095812199999999859e-09
1.050000000000000000e+01 6.676317099999999860e-09
1.075000000000000000e+01 5.530744989999999968e-09
1.100000000000000000e+01 4.601610629999999906e-09
1.125000000000000000e+01 3.844423020000000060e-09
1.150000000000000000e+01 3.224546359999999911e-09
1.175000000000000000e+01 2.714866109999999995e-09
1.200000000000000000e+01 2.294042079999999826e-09
1.225000000000000000e+01 1.950296289999999992e-09
1.250000000000000000e+01 1.685503070000000049e-09
1.275000000000000000e+01 1.478366230000000094e-09
1.300000000000000000e+01 1.312654679999999973e-09
1.325000000000000000e+01 1.177864199999999999e-09
1.350000000000000000e+01 1.065863710000000064e-09
1.375000000000000000e+01 9.718953739999999523e-10
1.400000000000000000e+01 8.925481989999999843e-10
1.425000000000000000e+01 8.244559890000000454e-10
1.450000000000000000e+01 7.657140940000000350e-10
1.475000000000000000e+01 7.148784709999999680e-10
1.500000000000000000e+01 6.702466140000000089e-10
1.525000000000000000e+01 6.306113220000000336e-10
1.550000000000000000e+01 5.957242420000000437e-10
1.575000000000000000e+01 5.648189429999999853e-10
1.600000000000000000e+01 5.366376319999999976e-10
1.625000000000000000e+01 5.121325169999999923e-10
1.650000000000000000e+01 4.892168160000000150e-10
1.675000000000000000e+01 4.693982779999999518e-10
1.700000000000000000e+01 4.506586279999999813e-10
1.725000000000000000e+01 4.342838570000000214e-10
1.750000000000000000e+01 4.189395019999999869e-10
1.775000000000000000e+01 4.050356239999999857e-10
1.800000000000000000e+01 3.924880060000000056e-10
1.825000000000000000e+01 3.804942269999999870e-10
1.850000000000000000e+01 3.701058540000000256e-10
1.875000000000000000e+01 3.603021609999999865e-10
1.900000000000000000e+01 3.508829049999999977e-10
1.925000000000000000e+01 3.429251630000000046e-10
1.950000000000000000e+01 3.352683590000000117e-10
1.975000000000000000e+01 3.278768190000000148e-10
2.000000000000000000e+01 3.215717339999999872e-10
2.025000000000000000e+01 3.156351199999999828e-10
2.050000000000000000e+01 3.098789460000000187e-10
2.075000000000000000e+01 3.046555020000000122e-10
2.100000000000000000e+01 3.001287040000000032e-10
2.125000000000000000e+01 2.957215569999999756e-10
2.150000000000000000e+01 2.914295439999999908e-10
2.175000000000000000e+01 2.878056330000000180e-10
2.200000000000000000e+01 2.845351139999999911e-10
2.225000000000000000e+01 2.813380909999999978e-10
2.250000000000000000e+01 2.782121119999999927e-10
2.275000000000000000e+01 2.756614750000000125e-10
2.300000000000000000e+01 2.734111669999999976e-10
2.325000000000000000e+01 2.712032619999999875e-10
2.350000000000000000e+01 2.690365150000000197e-10
2.375000000000000000e+01 2.671774600000000089e-10
2.400000000000000000e+01 2.657822679999999768e-10
2.425000000000000000e+01 2.644087069999999786e-10
2.450000000000000000e+01 2.630562240000000117e-10
2.475000000000000000e+01 2.617242850000000134e-10
2.500000000000000000e+01 2.609453919999999905e-10
2.525000000000000000e+01 2.602970750000000195e-10
2.550000000000000000e+01 2.596567330000000058e-10
2.575000000000000000e+01 2.590241909999999969e-10
2.600000000000000000e+01 2.583992780000000170e-10
2.625000000000000000e+01 2.583806120000000080e-10
2.650000000000000000e+01 2.583806120000000080e-10
2.675000000000000000e+01 2.583806120000000080e-10
2.700000000000000000e+01 2.583806120000000080e-10
2.725000000000000000e+01 2.583806120000000080e-10
2.750000000000000000e+01 2.588731270000000088e-10
2.775000000000000000e+01 2.594594800000000115e-10
2.800000000000000000e+01 2.600418839999999900e-10
2.825000000000000000e+01 2.606204009999999930e-10
2.850000000000000000e+01 2.611950909999999775e-10
2.875000000000000000e+01 2.619791499999999969e-10
2.900000000000000000e+01 2.631157249999999992e-10
2.925000000000000000e+01 2.642474109999999775e-10
2.950000000000000000e+01 2.653742699999999805e-10
2.975000000000000000e+01 2.664963649999999993e-10
3.000000000000000000e+01 2.676137549999999968e-10
3.025000000000000000e+01 2.690102920000000234e-10
3.050000000000000000e+01 2.706759939999999906e-10
3.075000000000000000e+01 2.723382870000000128e-10
3.100000000000000000e+01 2.739972039999999989e-10
3.125000000000000000e+01 2.756527809999999956e-10
3.150000000000000000e+01 2.773050489999999757e-10
3.175000000000000000e+01 2.790059189999999783e-10
3.200000000000000000e+01 2.812028159999999928e-10
3.225000000000000000e+01 2.833997130000000073e-10
3.250000000000000000e+01 2.855966100000000218e-10
3.275000000000000000e+01 2.877935069999999845e-10
3.300000000000000000e+01 2.899904039999999990e-10
3.325000000000000000e+01 2.921873010000000135e-10
3.350000000000000000e+01 2.943841979999999763e-10
3.375000000000000000e+01 2.970572699999999940e-10
3.400000000000000000e+01 2.998103419999999743e-10
3.425000000000000000e+01 3.025684800000000226e-10
3.450000000000000000e+01 3.053316549999999995e-10
3.475000000000000000e+01 3.080998410000000062e-10
3.500000000000000000e+01 3.108730100000000008e-10
3.525000000000000000e+01 3.136511359999999811e-10
3.550000000000000000e+01 3.164341920000000027e-10
3.575000000000000000e+01 3.194264979999999840e-10
3.600000000000000000e+01 3.227829760000000077e-10
3.625000000000000000e+01 3.261511289999999791e-10
3.650000000000000000e+01 3.295309169999999784e-10
3.675000000000000000e+01 3.329222989999999885e-10
3.700000000000000000e+01 3.363252369999999745e-10
3.725000000000000000e+01 3.397396900000000225e-10
3.750000000000000000e+01 3.431656199999999944e-10
3.775000000000000000e+01 3.466029900000000044e-10
3.800000000000000000e+01 3.500517599999999778e-10
3.825000000000000000e+01 3.535118929999999772e-10
3.850000000000000000e+01 3.574746309999999988e-10
3.875000000000000000e+01 3.615467289999999742e-10
3.900000000000000000e+01 3.656385789999999780e-10
3.925000000000000000e+01 3.697501479999999977e-10
3.950000000000000000e+01 3.738814060000000029e-10
3.975000000000000000e+01 3.780323209999999752e-10
4.000000000000000000e+01 3.822028619999999937e-10
4.025000000000000000e+01 3.863929979999999822e-10
4.050000000000000000e+01 3.906026990000000140e-10
4.075000000000000000e+01 3.948319350000000071e-10
4.100000000000000000e+01 3.990806759999999830e-10
4.125000000000000000e+01 4.033488910000000207e-10
4.150000000000000000e+01 4.076365519999999747e-10
4.175000000000000000e+01 4.119713499999999910e-10
4.200000000000000000e+01 4.169199110000000002e-10
4.225000000000000000e+01 4.218980150000000093e-10
4.250000000000000000e+01 4.269056630000000126e-10
4.275000000000000000e+01 4.319428540000000158e-10
4.300000000000000000e+01 4.370095890000000132e-10
4.325000000000000000e+01 4.421058680000000047e-10
4.350000000000000000e+01 4.472316899999999963e-10
4.375000000000000000e+01 4.523870559999999819e-10
4.400000000000000000e+01 4.575719660000000134e-10
4.425000000000000000e+01 4.627864189999999932e-10
4.450000000000000000e+01 4.680304160000000188e-10
4.475000000000000000e+01 4.733039559999999927e-10
4.500000000000000000e+01 4.786070400000000124e-10
4.525000000000000000e+01 4.839396679999999746e-10
4.550000000000000000e+01 4.893018399999999825e-10
4.575000000000000000e+01 4.946935549999999905e-10
4.600000000000000000e+01 5.001148140000000443e-10
4.625000000000000000e+01 5.055656159999999948e-10
4.650000000000000000e+01 5.110459619999999910e-10
4.675000000000000000e+01 5.171603039999999695e-10
4.700000000000000000e+01 5.234036280000000232e-10
4.725000000000000000e+01 5.296886009999999697e-10
4.750000000000000000e+01 5.360152789999999962e-10
4.775000000000000000e+01 5.423837179999999802e-10
4.800000000000000000e+01 5.487939720000000173e-10
4.825000000000000000e+01 5.552460949999999966e-10
4.850000000000000000e+01 5.617401419999999563e-10
4.875000000000000000e+01 5.682761680000000379e-10
4.900000000000000000e+01 5.748542259999999814e-10
4.925000000000000000e+01 5.814743690000000434e-10
4.950000000000000000e+01 5.881366529999999978e-10
4.975000000000000000e+01 5.948411290000000098e-10
5.000000000000000000e+01 6.015878520000000141e-10
5.025000000000000000e+01 6.083768740000000149e-10
5.050000000000000000e+01 6.152082470000000164e-10
5.075000000000000000e+01 6.220820250000000111e-10
5.100000000000000000e+01 6.289982600000000029e-10
5.125000000000000000e+01 6.359570039999999963e-10
5.150000000000000000e+01 6.429583089999999952e-10
5.175000000000000000e+01 6.500022270000000039e-10
5.200000000000000000e+01 6.570888100000000265e-10
5.225000000000000000e+01 6.642181079999999756e-10
5.250000000000000000e+01 6.713901740000000045e-10
5.275000000000000000e+01 6.786050569999999800e-10
5.300000000000000000e+01 6.858628099999999521e-10
5.325000000000000000e+01 6.931634830000000401e-10
5.350000000000000000e+01 7.005071259999999498e-10
5.375000000000000000e+01 7.085712979999999759e-10
5.400000000000000000e+01 7.168392630000000235e-10
5.425000000000000000e+01 7.251648440000000367e-10
5.450000000000000000e+01 7.335481749999999509e-10
5.475000000000000000e+01 7.419893880000000230e-10
5.500000000000000000e+01 7.504886160000000391e-10
5.525000000000000000e+01 7.590459919999999920e-10
5.550000000000000000e+01 7.676616460000000472e-10
5.575000000000000000e+01 7.763357120000000364e-10
5.600000000000000000e+01 7.850683200000000218e-10
5.625000000000000000e+01 7.938596019999999504e-10
5.650000000000000000e+01 8.027096879999999875e-10
5.675000000000000000e+01 8.116187099999999769e-10
5.700000000000000000e+01 8.205867959999999924e-10
5.725000000000000000e+01 8.296140770000000385e-10
5.750000000000000000e+01 8.387006829999999705e-10
5.775000000000000000e+01 8.478467439999999541e-10
5.800000000000000000e+01 8.570523879999999595e-10
5.825000000000000000e+01 8.663177429999999575e-10
5.850000000000000000e+01 8.756429399999999524e-10
5.875000000000000000e+01 8.850281050000000300e-10
5.900000000000000000e+01 8.944733680000000455e-10
5.925000000000000000e+01 9.039788549999999813e-10
5.950000000000000000e+01 9.135446940000000146e-10
5.975000000000000000e+01 9.231710130000000125e-10
6.000000000000000000e+01 9.328579369999999115e-10
6.025000000000000000e+01 9.426055950000000381e-10
6.050000000000000000e+01 9.524141120000000185e-10
6.075000000000000000e+01 9.622836149999999842e-10
6.100000000000000000e+01 9.722142280000000326e-10
6.125000000000000000e+01 9.822060790000000308e-10
6.150000000000000000e+01 9.922592920000000763e-10
6.175000000000000000e+01 1.002373989999999910e-09
6.200000000000000000e+01 1.012550309999999916e-09
6.225000000000000000e+01 1.022788350000000034e-09
6.250000000000000000e+01 1.033088269999999941e-09
6.275000000000000000e+01 1.043450160000000041e-09
6.300000000000000000e+01 1.053874169999999966e-09
6.325000000000000000e+01 1.064360399999999955e-09
6.350000000000000000e+01 1.074909000000000057e-09
6.375000000000000000e+01 1.085520070000000095e-09
6.400000000000000000e+01 1.096193750000000075e-09
6.425000000000000000e+01 1.106948919999999933e-09
6.450000000000000000e+01 1.118834070000000090e-09
6.475000000000000000e+01 1.130800109999999935e-09
6.500000000000000000e+01 1.142847279999999917e-09
6.525000000000000000e+01 1.154975810000000026e-09
6.550000000000000000e+01 1.167185930000000046e-09
6.575000000000000000e+01 1.179477880000000012e-09
6.600000000000000000e+01 1.191851889999999914e-09
6.625000000000000000e+01 1.204308210000000040e-09
6.650000000000000000e+01 1.216847050000000084e-09
6.675000000000000000e+01 1.229468650000000081e-09
6.700000000000000000e+01 1.242173259999999904e-09
6.725000000000000000e+01 1.254961090000000075e-09
6.750000000000000000e+01 1.267832390000000053e-09
6.775000000000000000e+01 1.280787390000000036e-09
6.800000000000000000e+01 1.293826309999999969e-09
6.825000000000000000e+01 1.306949390000000095e-09
6.850000000000000000e+01 1.320156870000000035e-09
6.875000000000000000e+01 1.333448969999999942e-09
6.900000000000000000e+01 1.346825930000000058e-09
6.925000000000000000e+01 1.360287969999999915e-09
6.950000000000000000e+01 1.373835329999999963e-09
6.975000000000000000e+01 1.387468239999999984e-09
7.000000000000000000e+01 1.401186929999999970e-09
7.025000000000000000e+01 1.414991629999999911e-09
7.050000000000000000e+01 1.428882570000000004e-09
7.075000000000000000e+01 1.442859990000000079e-09
7.100000000000000000e+01 1.456924100000000035e-09
7.125000000000000000e+01 1.471075139999999910e-09
7.150000000000000000e+01 1.485313349999999943e-09
7.175000000000000000e+01 1.499638940000000038e-09
7.200000000000000000e+01 1.514052150000000022e-09
7.225000000000000000e+01 1.528553200000000048e-09
7.250000000000000000e+01 1.543142339999999989e-09
7.275000000000000000e+01 1.557819769999999909e-09
7.300000000000000000e+01 1.572585740000000095e-09
7.325000000000000000e+01 1.587440470000000078e-09
7.350000000000000000e+01 1.602384190000000056e-09
7.375000000000000000e+01 1.617417119999999975e-09
7.400000000000000000e+01 1.632539500000000078e-09
7.425000000000000000e+01 1.647751550000000103e-09
7.450000000000000000e+01 1.663053489999999997e-09
7.475000000000000000e+01 1.678445560000000001e-09
7.500000000000000000e+01 1.693927980000000061e-09
7.525000000000000000e+01 1.709500979999999962e-09
7.550000000000000000e+01 1.725164789999999900e-09
7.575000000000000000e+01 1.740919619999999984e-09
7.600000000000000000e+01 1.756765710000000043e-09
7.625000000000000000e+01 1.772703290000000066e-09
7.650000000000000000e+01 1.788732569999999956e-09
7.675000000000000000e+01 1.804853789999999954e-09
7.700000000000000000e+01 1.821067159999999962e-09
7.725000000000000000e+01 1.837372920000000015e-09
7.750000000000000000e+01 1.853771280000000015e-09
7.775000000000000000e+01 1.870262479999999996e-09
7.800000000000000000e+01 1.886846739999999905e-09
7.825000000000000000e+01 1.903524280000000102e-09
7.850000000000000000e+01 1.920295319999999911e-09
7.875000000000000000e+01 1.937160099999999989e-09
7.900000000000000000e+01 1.954118829999999823e-09
7.925000000000000000e+01 1.971171739999999818e-09
7.950000000000000000e+01 1.988319039999999875e-09
7.975000000000000000e+01 2.005560980000000074e-09
8.000000000000000000e+01 2.022897760000000066e-09
8.025000000000000000e+01 2.040329609999999839e-09
8.050000000000000000e+01 2.057856749999999962e-09
8.075000000000000000e+01 2.075479410000000011e-09
8.100000000000000000e+01 2.093197799999999887e-09
8.125000000000000000e+01 2.112398250000000130e-09
8.150000000000000000e+01 2.131957369999999811e-09
8.175000000000000000e+01 2.151636850000000057e-09
8.200000000000000000e+01 2.171437070000000079e-09
8.225000000000000000e+01 2.191358379999999990e-09
8.250000000000000000e+01 2.211401170000000078e-09
8.275000000000000000e+01 2.231565799999999879e-09
8.300000000000000000e+01 2.251852640000000009e-09
8.325000000000000000e+01 2.272262059999999839e-09
8.350000000000000000e+01 2.292794420000000147e-09
8.375000000000000000e+01 2.313450100000000144e-09
8.400000000000000000e+01 2.334229470000000031e-09
8.425000000000000000e+01 2.355132900000000008e-09
8.450000000000000000e+01 2.376160740000000186e-09
8.475000000000000000e+01 2.397313389999999867e-09
8.500000000000000000e+01 2.418591190000000151e-09
8.525000000000000000e+01 2.439994530000000087e-09
8.550000000000000000e+01 2.461523770000000039e-09
8.575000000000000000e+01 2.483179280000000206e-09
8.600000000000000000e+01 2.504961429999999962e-09
8.625000000000000000e+01 2.526870589999999921e-09
8.650000000000000000e+01 2.548907129999999871e-09
8.675000000000000000e+01 2.571071420000000012e-09
8.700000000000000000e+01 2.593363819999999881e-09
8.725000000000000000e+01 2.615784709999999928e-09
8.750000000000000000e+01 2.638334450000000103e-09
8.775000000000000000e+01 2.661013420000000031e-09
8.800000000000000000e+01 2.683821989999999913e-09
8.825000000000000000e+01 2.706760509999999861e-09
8.850000000000000000e+01 2.729829370000000163e-09
8.875000000000000000e+01 2.753028929999999943e-09
8.900000000000000000e+01 2.776359559999999814e-09
8.925000000000000000e+01 2.799821629999999977e-09
8.950000000000000000e+01 2.823415509999999806e-09
8.975000000000000000e+01 2.847141569999999914e-09
9.000000000000000000e+01 2.871000169999999839e-09
9.025000000000000000e+01 2.894991690000000030e-09
9.050000000000000000e+01 2.919116499999999863e-09
9.075000000000000000e+01 2.943374960000000114e-09
9.100000000000000000e+01 2.967767449999999993e-09
9.125000000000000000e+01 2.992294329999999864e-09
9.150000000000000000e+01 3.016955969999999927e-09
9.175000000000000000e+01 3.041752749999999808e-09
9.200000000000000000e+01 3.066685020000000031e-09
9.225000000000000000e+01 3.091753170000000059e-09
9.250000000000000000e+01 3.116957550000000003e-09
9.275000000000000000e+01 3.142298550000000153e-09
9.300000000000000000e+01 3.167776519999999795e-09
9.325000000000000000e+01 3.193391840000000206e-09
9.350000000000000000e+01 3.219144879999999933e-09
9.375000000000000000e+01 3.245036000000000167e-09
9.400000000000000000e+01 3.271065580000000118e-09
9.425000000000000000e+01 3.297233980000000149e-09
9.450000000000000000e+01 3.323541570000000048e-09
9.475000000000000000e+01 3.349988729999999852e-09
9.500000000000000000e+01 3.376575819999999926e-09
9.525000000000000000e+01 3.403303210000000055e-09
9.550000000000000000e+01 3.430171270000000027e-09
9.575000000000000000e+01 3.457180370000000043e-09
9.600000000000000000e+01 3.484330870000000052e-09
9.625000000000000000e+01 3.511623159999999930e-09
9.650000000000000000e+01 3.539057590000000202e-09
9.675000000000000000e+01 3.566634540000000080e-09
9.700000000000000000e+01 3.594354369999999926e-09
9.725000000000000000e+01 3.622217460000000192e-09
9.750000000000000000e+01 3.650224179999999838e-09
9.775000000000000000e+01 3.678374879999999804e-09
9.800000000000000000e+01 3.706669949999999965e-09
9.825000000000000000e+01 3.735109750000000270e-09
9.850000000000000000e+01 3.763694650000000094e-09
9.875000000000000000e+01 3.792425019999999636e-09
9.900000000000000000e+01 3.821301230000000338e-09
9.925000000000000000e+01 3.850323639999999668e-09
9.950000000000000000e+01 3.879492640000000397e-09
9.975000000000000000e+01 3.908808580000000156e-09
1.000000000000000000e+02 3.938271840000000223e-09
1.002500000000000000e+02 3.967882779999999720e-09
1.005000000000000000e+02 3.997641779999999927e-09
1.007500000000000000e+02 4.027549199999999966e-09
1.010000000000000000e+02 4.057605409999999624e-09
1.012500000000000000e+02 4.087810790000000180e-09
1.015000000000000000e+02 4.118165699999999929e-09
1.017500000000000000e+02 4.148670499999999648e-09
1.020000000000000000e+02 4.179325579999999626e-09
1.022500000000000000e+02 4.210131299999999813e-09
1.025000000000000000e+02 4.241088020000000158e-09
1.027500000000000000e+02 4.272196120000000285e-09
1.030000000000000000e+02 4.303455969999999982e-09
1.032500000000000000e+02 4.334867939999999864e-09
1.035000000000000000e+02 4.366432380000000041e-09
1.037500000000000000e+02 4.398149689999999815e-09
1.040000000000000000e+02 4.430020210000000285e-09
1.042500000000000000e+02 4.462044330000000088e-09
1.045000000000000000e+02 4.494222409999999999e-09
1.047500000000000000e+02 4.526554829999999645e-09
1.050000000000000000e+02 4.559041939999999963e-09
1.052500000000000000e+02 4.591684119999999751e-09
1.055000000000000000e+02 4.624481739999999623e-09
1.057500000000000000e+02 4.657435170000000195e-09
1.060000000000000000e+02 4.690544769999999759e-09
1.062500000000000000e+02 4.723810919999999597e-09
1.065000000000000000e+02 4.757233990000000322e-09
1.067500000000000000e+02 4.790814340000000228e-09
1.070000000000000000e+02 4.824552349999999769e-09
1.072500000000000000e+02 4.858448379999999720e-09
1.075000000000000000e+02 4.892502799999999869e-09
1.077500000000000000e+02 4.928705050000000110e-09
1.080000000000000000e+02 4.965967569999999686e-09
1.082500000000000000e+02 5.003424659999999744e-09
1.085000000000000000e+02 5.041076899999999971e-09
1.087500000000000000e+02 5.078924850000000381e-09
1.090000000000000000e+02 5.116969070000000160e-09
1.092500000000000000e+02 5.155210129999999985e-09
1.095000000000000000e+02 5.193648580000000033e-09
1.097500000000000000e+02 5.232285009999999828e-09
